# Temperatura_=_20.0
# Concentracion g/m^3_=_14600.0
# C_Vs_to_Am_M_A/Vsm_=_116720831517.84952
# pendiente_HvsI_1/m_=_3716.3
# ordenada_HvsI_A/m_=_1297.0
# frecuencia_Hz_=_81280.81619350107
# Promedio de 26 ciclos

Tiempo_(s)	Campo_(V.s)	Magnetizacion_(V.s)	Campo_(kA/m)	Magnetizacion_(A/m)
0.000000e+00	-6.267045e-09	-5.150812e-09	-5.700957e+01	-6.087407e+02
1.000000e-08	-6.267095e-09	-5.152111e-09	-5.701002e+01	-6.087600e+02
2.000000e-08	-6.267003e-09	-5.151858e-09	-5.700918e+01	-6.087525e+02
3.000000e-08	-6.266796e-09	-5.147281e-09	-5.700730e+01	-6.087171e+02
4.000000e-08	-6.266438e-09	-5.141293e-09	-5.700405e+01	-6.086530e+02
5.000000e-08	-6.265881e-09	-5.137302e-09	-5.699898e+01	-6.085597e+02
6.000000e-08	-6.265122e-09	-5.136327e-09	-5.699207e+01	-6.084366e+02
7.000000e-08	-6.264196e-09	-5.135999e-09	-5.698364e+01	-6.082837e+02
8.000000e-08	-6.263104e-09	-5.127590e-09	-5.697371e+01	-6.081011e+02
9.000000e-08	-6.261796e-09	-5.125824e-09	-5.696182e+01	-6.078891e+02
1.000000e-07	-6.260226e-09	-5.182152e-09	-5.694754e+01	-6.076483e+02
1.100000e-07	-6.258445e-09	-5.269172e-09	-5.693133e+01	-6.073796e+02
1.200000e-07	-6.256609e-09	-5.242645e-09	-5.691464e+01	-6.070839e+02
1.300000e-07	-6.254793e-09	-5.190228e-09	-5.689812e+01	-6.067626e+02
1.400000e-07	-6.252885e-09	-5.216084e-09	-5.688076e+01	-6.064171e+02
1.500000e-07	-6.250742e-09	-5.187238e-09	-5.686127e+01	-6.060492e+02
1.600000e-07	-6.248369e-09	-5.098603e-09	-5.683968e+01	-6.056606e+02
1.700000e-07	-6.245815e-09	-5.096831e-09	-5.681645e+01	-6.052533e+02
1.800000e-07	-6.243064e-09	-5.174284e-09	-5.679142e+01	-6.048296e+02
1.900000e-07	-6.240085e-09	-5.198149e-09	-5.676432e+01	-6.043917e+02
2.000000e-07	-6.236906e-09	-5.183369e-09	-5.673541e+01	-6.039419e+02
2.100000e-07	-6.233555e-09	-5.195422e-09	-5.670492e+01	-6.034827e+02
2.200000e-07	-6.230042e-09	-5.180500e-09	-5.667296e+01	-6.030166e+02
2.300000e-07	-6.226378e-09	-5.147770e-09	-5.663963e+01	-6.025461e+02
2.400000e-07	-6.222523e-09	-5.114657e-09	-5.660456e+01	-6.020738e+02
2.500000e-07	-6.218498e-09	-5.124153e-09	-5.656796e+01	-6.016020e+02
2.600000e-07	-6.214353e-09	-5.162965e-09	-5.653025e+01	-6.011334e+02
2.700000e-07	-6.210092e-09	-5.158997e-09	-5.649148e+01	-6.006702e+02
2.800000e-07	-6.205678e-09	-5.162854e-09	-5.645133e+01	-6.002148e+02
2.900000e-07	-6.201095e-09	-5.148444e-09	-5.640965e+01	-5.997693e+02
3.000000e-07	-6.196375e-09	-5.113770e-09	-5.636671e+01	-5.993358e+02
3.100000e-07	-6.191522e-09	-5.092304e-09	-5.632256e+01	-5.989161e+02
3.200000e-07	-6.186505e-09	-5.111470e-09	-5.627692e+01	-5.985119e+02
3.300000e-07	-6.181288e-09	-5.119622e-09	-5.622946e+01	-5.981248e+02
3.400000e-07	-6.175890e-09	-5.112083e-09	-5.618037e+01	-5.977561e+02
3.500000e-07	-6.170333e-09	-5.136866e-09	-5.612982e+01	-5.974068e+02
3.600000e-07	-6.164618e-09	-5.134218e-09	-5.607782e+01	-5.970779e+02
3.700000e-07	-6.158756e-09	-5.108801e-09	-5.602450e+01	-5.967699e+02
3.800000e-07	-6.152743e-09	-5.089202e-09	-5.596980e+01	-5.964832e+02
3.900000e-07	-6.146571e-09	-5.094654e-09	-5.591366e+01	-5.962180e+02
4.000000e-07	-6.140237e-09	-5.099974e-09	-5.585604e+01	-5.959741e+02
4.100000e-07	-6.133751e-09	-5.104282e-09	-5.579704e+01	-5.957513e+02
4.200000e-07	-6.127135e-09	-5.115117e-09	-5.573685e+01	-5.955489e+02
4.300000e-07	-6.120384e-09	-5.106280e-09	-5.567544e+01	-5.953661e+02
4.400000e-07	-6.113461e-09	-5.105266e-09	-5.561247e+01	-5.952019e+02
4.500000e-07	-6.106333e-09	-5.097863e-09	-5.554762e+01	-5.950550e+02
4.600000e-07	-6.099017e-09	-5.086364e-09	-5.548108e+01	-5.949239e+02
4.700000e-07	-6.091552e-09	-5.078552e-09	-5.541317e+01	-5.948071e+02
4.800000e-07	-6.083942e-09	-5.088540e-09	-5.534394e+01	-5.947026e+02
4.900000e-07	-6.076170e-09	-5.103613e-09	-5.527325e+01	-5.946086e+02
5.000000e-07	-6.068243e-09	-5.103550e-09	-5.520113e+01	-5.945229e+02
5.100000e-07	-6.060176e-09	-5.104182e-09	-5.512775e+01	-5.944434e+02
5.200000e-07	-6.051983e-09	-5.094815e-09	-5.505322e+01	-5.943677e+02
5.300000e-07	-6.043645e-09	-5.092742e-09	-5.497737e+01	-5.942934e+02
5.400000e-07	-6.035102e-09	-5.087489e-09	-5.489966e+01	-5.942183e+02
5.500000e-07	-6.026346e-09	-5.082917e-09	-5.482001e+01	-5.941398e+02
5.600000e-07	-6.017410e-09	-5.085466e-09	-5.473872e+01	-5.940556e+02
5.700000e-07	-6.008332e-09	-5.090408e-09	-5.465614e+01	-5.939632e+02
5.800000e-07	-5.999120e-09	-5.097819e-09	-5.457234e+01	-5.938604e+02
5.900000e-07	-5.989755e-09	-5.092732e-09	-5.448715e+01	-5.937448e+02
6.000000e-07	-5.980238e-09	-5.089708e-09	-5.440058e+01	-5.936142e+02
6.100000e-07	-5.970572e-09	-5.082081e-09	-5.431265e+01	-5.934667e+02
6.200000e-07	-5.960750e-09	-5.078291e-09	-5.422330e+01	-5.933003e+02
6.300000e-07	-5.950738e-09	-5.077548e-09	-5.413223e+01	-5.931131e+02
6.400000e-07	-5.940514e-09	-5.076471e-09	-5.403922e+01	-5.929037e+02
6.500000e-07	-5.930079e-09	-5.080547e-09	-5.394430e+01	-5.926705e+02
6.600000e-07	-5.919457e-09	-5.080764e-09	-5.384767e+01	-5.924124e+02
6.700000e-07	-5.908672e-09	-5.080799e-09	-5.374957e+01	-5.921283e+02
6.800000e-07	-5.897731e-09	-5.070649e-09	-5.365004e+01	-5.918174e+02
6.900000e-07	-5.886637e-09	-5.060619e-09	-5.354912e+01	-5.914792e+02
7.000000e-07	-5.875400e-09	-5.052474e-09	-5.344690e+01	-5.911131e+02
7.100000e-07	-5.864029e-09	-5.046940e-09	-5.334346e+01	-5.907193e+02
7.200000e-07	-5.852513e-09	-5.046269e-09	-5.323870e+01	-5.902976e+02
7.300000e-07	-5.840833e-09	-5.043881e-09	-5.313245e+01	-5.898484e+02
7.400000e-07	-5.828976e-09	-5.043799e-09	-5.302459e+01	-5.893723e+02
7.500000e-07	-5.816946e-09	-5.038192e-09	-5.291516e+01	-5.888700e+02
7.600000e-07	-5.804772e-09	-5.032016e-09	-5.280442e+01	-5.883425e+02
7.700000e-07	-5.792463e-09	-5.023263e-09	-5.269244e+01	-5.877909e+02
7.800000e-07	-5.780014e-09	-5.015880e-09	-5.257920e+01	-5.872166e+02
7.900000e-07	-5.767422e-09	-5.013178e-09	-5.246466e+01	-5.866210e+02
8.000000e-07	-5.754691e-09	-5.011646e-09	-5.234884e+01	-5.860059e+02
8.100000e-07	-5.741818e-09	-5.010675e-09	-5.223174e+01	-5.853730e+02
8.200000e-07	-5.728791e-09	-5.002915e-09	-5.211324e+01	-5.847243e+02
8.300000e-07	-5.715610e-09	-4.995077e-09	-5.199334e+01	-5.840618e+02
8.400000e-07	-5.702266e-09	-4.984538e-09	-5.187195e+01	-5.833876e+02
8.500000e-07	-5.688758e-09	-4.974039e-09	-5.174907e+01	-5.827039e+02
8.600000e-07	-5.675095e-09	-4.964668e-09	-5.162479e+01	-5.820129e+02
8.700000e-07	-5.661294e-09	-4.957859e-09	-5.149924e+01	-5.813167e+02
8.800000e-07	-5.647370e-09	-4.958475e-09	-5.137258e+01	-5.806177e+02
8.900000e-07	-5.633319e-09	-4.960315e-09	-5.124476e+01	-5.799180e+02
9.000000e-07	-5.619129e-09	-4.960379e-09	-5.111568e+01	-5.792199e+02
9.100000e-07	-5.604794e-09	-4.951340e-09	-5.098528e+01	-5.785253e+02
9.200000e-07	-5.590317e-09	-4.940272e-09	-5.085358e+01	-5.778364e+02
9.300000e-07	-5.575697e-09	-4.929942e-09	-5.072059e+01	-5.771549e+02
9.400000e-07	-5.560925e-09	-4.920522e-09	-5.058622e+01	-5.764828e+02
9.500000e-07	-5.545982e-09	-4.914323e-09	-5.045028e+01	-5.758217e+02
9.600000e-07	-5.530853e-09	-4.909382e-09	-5.031266e+01	-5.751731e+02
9.700000e-07	-5.515547e-09	-4.908069e-09	-5.017342e+01	-5.745382e+02
9.800000e-07	-5.500083e-09	-4.906513e-09	-5.003275e+01	-5.739184e+02
9.900000e-07	-5.484468e-09	-4.905151e-09	-4.989071e+01	-5.733146e+02
1.000000e-06	-5.468698e-09	-4.900842e-09	-4.974726e+01	-5.727275e+02
1.010000e-06	-5.452770e-09	-4.894710e-09	-4.960236e+01	-5.721577e+02
1.020000e-06	-5.436692e-09	-4.887924e-09	-4.945611e+01	-5.716057e+02
1.030000e-06	-5.420465e-09	-4.879274e-09	-4.930849e+01	-5.710715e+02
1.040000e-06	-5.404078e-09	-4.870573e-09	-4.915942e+01	-5.705552e+02
1.050000e-06	-5.387546e-09	-4.862218e-09	-4.900903e+01	-5.700565e+02
1.060000e-06	-5.370885e-09	-4.859853e-09	-4.885747e+01	-5.695748e+02
1.070000e-06	-5.354100e-09	-4.861134e-09	-4.870478e+01	-5.691096e+02
1.080000e-06	-5.337192e-09	-4.861144e-09	-4.855098e+01	-5.686600e+02
1.090000e-06	-5.320161e-09	-4.861751e-09	-4.839605e+01	-5.682249e+02
1.100000e-06	-5.303012e-09	-4.863472e-09	-4.824006e+01	-5.678031e+02
1.110000e-06	-5.285745e-09	-4.863422e-09	-4.808298e+01	-5.673931e+02
1.120000e-06	-5.268354e-09	-4.855442e-09	-4.792478e+01	-5.669935e+02
1.130000e-06	-5.250842e-09	-4.841977e-09	-4.776548e+01	-5.666025e+02
1.140000e-06	-5.233204e-09	-4.832619e-09	-4.760503e+01	-5.662183e+02
1.150000e-06	-5.215435e-09	-4.827180e-09	-4.744339e+01	-5.658390e+02
1.160000e-06	-5.197530e-09	-4.823693e-09	-4.728052e+01	-5.654625e+02
1.170000e-06	-5.179495e-09	-4.823114e-09	-4.711645e+01	-5.650866e+02
1.180000e-06	-5.161320e-09	-4.826538e-09	-4.695113e+01	-5.647094e+02
1.190000e-06	-5.142994e-09	-4.833267e-09	-4.678442e+01	-5.643284e+02
1.200000e-06	-5.124513e-09	-4.834280e-09	-4.661630e+01	-5.639416e+02
1.210000e-06	-5.105886e-09	-4.826442e-09	-4.644685e+01	-5.635466e+02
1.220000e-06	-5.087132e-09	-4.815489e-09	-4.627625e+01	-5.631412e+02
1.230000e-06	-5.068260e-09	-4.807822e-09	-4.610458e+01	-5.627234e+02
1.240000e-06	-5.049273e-09	-4.803929e-09	-4.593186e+01	-5.622908e+02
1.250000e-06	-5.030160e-09	-4.800855e-09	-4.575800e+01	-5.618416e+02
1.260000e-06	-5.010919e-09	-4.800867e-09	-4.558297e+01	-5.613737e+02
1.270000e-06	-4.991551e-09	-4.802976e-09	-4.540678e+01	-5.608852e+02
1.280000e-06	-4.972049e-09	-4.804807e-09	-4.522938e+01	-5.603745e+02
1.290000e-06	-4.952417e-09	-4.802095e-09	-4.505079e+01	-5.598399e+02
1.300000e-06	-4.932658e-09	-4.794368e-09	-4.487105e+01	-5.592799e+02
1.310000e-06	-4.912763e-09	-4.784162e-09	-4.469007e+01	-5.586932e+02
1.320000e-06	-4.892721e-09	-4.774017e-09	-4.450775e+01	-5.580788e+02
1.330000e-06	-4.872540e-09	-4.765713e-09	-4.432417e+01	-5.574356e+02
1.340000e-06	-4.852232e-09	-4.756577e-09	-4.413944e+01	-5.567628e+02
1.350000e-06	-4.831810e-09	-4.749191e-09	-4.395367e+01	-5.560599e+02
1.360000e-06	-4.811275e-09	-4.743716e-09	-4.376686e+01	-5.553265e+02
1.370000e-06	-4.790621e-09	-4.740002e-09	-4.357898e+01	-5.545624e+02
1.380000e-06	-4.769850e-09	-4.735598e-09	-4.339004e+01	-5.537675e+02
1.390000e-06	-4.748960e-09	-4.729434e-09	-4.320001e+01	-5.529421e+02
1.400000e-06	-4.727945e-09	-4.722671e-09	-4.300883e+01	-5.520865e+02
1.410000e-06	-4.706800e-09	-4.712889e-09	-4.281648e+01	-5.512012e+02
1.420000e-06	-4.685534e-09	-4.703379e-09	-4.262304e+01	-5.502871e+02
1.430000e-06	-4.664151e-09	-4.692843e-09	-4.242852e+01	-5.493451e+02
1.440000e-06	-4.642641e-09	-4.681290e-09	-4.223285e+01	-5.483761e+02
1.450000e-06	-4.620996e-09	-4.669805e-09	-4.203595e+01	-5.473815e+02
1.460000e-06	-4.599221e-09	-4.660717e-09	-4.183787e+01	-5.463626e+02
1.470000e-06	-4.577326e-09	-4.654290e-09	-4.163870e+01	-5.453209e+02
1.480000e-06	-4.555323e-09	-4.646908e-09	-4.143854e+01	-5.442579e+02
1.490000e-06	-4.533217e-09	-4.638119e-09	-4.123745e+01	-5.431755e+02
1.500000e-06	-4.511003e-09	-4.625923e-09	-4.103537e+01	-5.420754e+02
1.510000e-06	-4.488677e-09	-4.613729e-09	-4.083228e+01	-5.409594e+02
1.520000e-06	-4.466236e-09	-4.601879e-09	-4.062815e+01	-5.398294e+02
1.530000e-06	-4.443679e-09	-4.590835e-09	-4.042295e+01	-5.386874e+02
1.540000e-06	-4.421000e-09	-4.581964e-09	-4.021665e+01	-5.375352e+02
1.550000e-06	-4.398199e-09	-4.574631e-09	-4.000923e+01	-5.363749e+02
1.560000e-06	-4.375282e-09	-4.566563e-09	-3.980076e+01	-5.352083e+02
1.570000e-06	-4.352246e-09	-4.552939e-09	-3.959121e+01	-5.340372e+02
1.580000e-06	-4.329078e-09	-4.538773e-09	-3.938046e+01	-5.328636e+02
1.590000e-06	-4.305774e-09	-4.527680e-09	-3.916847e+01	-5.316890e+02
1.600000e-06	-4.282337e-09	-4.518305e-09	-3.895527e+01	-5.305151e+02
1.610000e-06	-4.258783e-09	-4.508207e-09	-3.874100e+01	-5.293435e+02
1.620000e-06	-4.235116e-09	-4.496262e-09	-3.852572e+01	-5.281755e+02
1.630000e-06	-4.211345e-09	-4.484427e-09	-3.830947e+01	-5.270124e+02
1.640000e-06	-4.187470e-09	-4.473010e-09	-3.809229e+01	-5.258553e+02
1.650000e-06	-4.163490e-09	-4.462601e-09	-3.787415e+01	-5.247052e+02
1.660000e-06	-4.139404e-09	-4.451268e-09	-3.765505e+01	-5.235627e+02
1.670000e-06	-4.115209e-09	-4.441538e-09	-3.743496e+01	-5.224286e+02
1.680000e-06	-4.090907e-09	-4.435541e-09	-3.721388e+01	-5.213033e+02
1.690000e-06	-4.066499e-09	-4.430001e-09	-3.699186e+01	-5.201869e+02
1.700000e-06	-4.041991e-09	-4.423026e-09	-3.676891e+01	-5.190795e+02
1.710000e-06	-4.017383e-09	-4.413912e-09	-3.654506e+01	-5.179809e+02
1.720000e-06	-3.992667e-09	-4.403834e-09	-3.632023e+01	-5.168907e+02
1.730000e-06	-3.967836e-09	-4.392683e-09	-3.609435e+01	-5.158085e+02
1.740000e-06	-3.942891e-09	-4.380286e-09	-3.586743e+01	-5.147334e+02
1.750000e-06	-3.917837e-09	-4.366113e-09	-3.563952e+01	-5.136645e+02
1.760000e-06	-3.892679e-09	-4.356068e-09	-3.541067e+01	-5.126007e+02
1.770000e-06	-3.867426e-09	-4.352523e-09	-3.518095e+01	-5.115407e+02
1.780000e-06	-3.842082e-09	-4.347908e-09	-3.495040e+01	-5.104831e+02
1.790000e-06	-3.816647e-09	-4.340165e-09	-3.471901e+01	-5.094263e+02
1.800000e-06	-3.791121e-09	-4.331563e-09	-3.448681e+01	-5.083685e+02
1.810000e-06	-3.765504e-09	-4.323350e-09	-3.425378e+01	-5.073080e+02
1.820000e-06	-3.739792e-09	-4.313055e-09	-3.401989e+01	-5.062427e+02
1.830000e-06	-3.713982e-09	-4.301333e-09	-3.378511e+01	-5.051705e+02
1.840000e-06	-3.688075e-09	-4.289674e-09	-3.354944e+01	-5.040895e+02
1.850000e-06	-3.662073e-09	-4.279138e-09	-3.331290e+01	-5.029973e+02
1.860000e-06	-3.635976e-09	-4.270365e-09	-3.307551e+01	-5.018918e+02
1.870000e-06	-3.609784e-09	-4.260807e-09	-3.283725e+01	-5.007708e+02
1.880000e-06	-3.583496e-09	-4.252026e-09	-3.259811e+01	-4.996319e+02
1.890000e-06	-3.557110e-09	-4.244608e-09	-3.235809e+01	-4.984730e+02
1.900000e-06	-3.530624e-09	-4.238026e-09	-3.211715e+01	-4.972919e+02
1.910000e-06	-3.504042e-09	-4.230261e-09	-3.187534e+01	-4.960865e+02
1.920000e-06	-3.477368e-09	-4.219662e-09	-3.163270e+01	-4.948547e+02
1.930000e-06	-3.450608e-09	-4.207848e-09	-3.138927e+01	-4.935946e+02
1.940000e-06	-3.423764e-09	-4.194955e-09	-3.114508e+01	-4.923042e+02
1.950000e-06	-3.396840e-09	-4.180423e-09	-3.090016e+01	-4.909820e+02
1.960000e-06	-3.369836e-09	-4.164303e-09	-3.065450e+01	-4.896262e+02
1.970000e-06	-3.342753e-09	-4.149531e-09	-3.040814e+01	-4.882354e+02
1.980000e-06	-3.315586e-09	-4.137297e-09	-3.016101e+01	-4.868084e+02
1.990000e-06	-3.288329e-09	-4.127160e-09	-2.991306e+01	-4.853441e+02
2.000000e-06	-3.260979e-09	-4.118747e-09	-2.966426e+01	-4.838415e+02
2.010000e-06	-3.233538e-09	-4.108942e-09	-2.941464e+01	-4.822999e+02
2.020000e-06	-3.206005e-09	-4.096729e-09	-2.916418e+01	-4.807188e+02
2.030000e-06	-3.178383e-09	-4.083054e-09	-2.891292e+01	-4.790978e+02
2.040000e-06	-3.150674e-09	-4.067226e-09	-2.866086e+01	-4.774368e+02
2.050000e-06	-3.122876e-09	-4.048948e-09	-2.840799e+01	-4.757358e+02
2.060000e-06	-3.094990e-09	-4.028624e-09	-2.815431e+01	-4.739951e+02
2.070000e-06	-3.067018e-09	-4.009098e-09	-2.789986e+01	-4.722152e+02
2.080000e-06	-3.038959e-09	-3.994386e-09	-2.764461e+01	-4.703967e+02
2.090000e-06	-3.010808e-09	-3.983636e-09	-2.738853e+01	-4.685404e+02
2.100000e-06	-2.982570e-09	-3.972005e-09	-2.713166e+01	-4.666473e+02
2.110000e-06	-2.954247e-09	-3.956022e-09	-2.687401e+01	-4.647185e+02
2.120000e-06	-2.925832e-09	-3.935614e-09	-2.661553e+01	-4.627554e+02
2.130000e-06	-2.897333e-09	-3.913871e-09	-2.635629e+01	-4.607593e+02
2.140000e-06	-2.868758e-09	-3.892941e-09	-2.609635e+01	-4.587318e+02
2.150000e-06	-2.840103e-09	-3.871101e-09	-2.583568e+01	-4.566746e+02
2.160000e-06	-2.811370e-09	-3.850335e-09	-2.557430e+01	-4.545893e+02
2.170000e-06	-2.782558e-09	-3.833415e-09	-2.531221e+01	-4.524777e+02
2.180000e-06	-2.753668e-09	-3.818777e-09	-2.504940e+01	-4.503417e+02
2.190000e-06	-2.724706e-09	-3.804002e-09	-2.478594e+01	-4.481831e+02
2.200000e-06	-2.695670e-09	-3.785880e-09	-2.452181e+01	-4.460037e+02
2.210000e-06	-2.666561e-09	-3.764630e-09	-2.425701e+01	-4.438054e+02
2.220000e-06	-2.637389e-09	-3.742882e-09	-2.399164e+01	-4.415899e+02
2.230000e-06	-2.608148e-09	-3.721297e-09	-2.372565e+01	-4.393590e+02
2.240000e-06	-2.578838e-09	-3.697749e-09	-2.345902e+01	-4.371143e+02
2.250000e-06	-2.549461e-09	-3.673103e-09	-2.319179e+01	-4.348574e+02
2.260000e-06	-2.520028e-09	-3.651381e-09	-2.292405e+01	-4.325897e+02
2.270000e-06	-2.490539e-09	-3.634924e-09	-2.265579e+01	-4.303125e+02
2.280000e-06	-2.460991e-09	-3.621745e-09	-2.238700e+01	-4.280270e+02
2.290000e-06	-2.431381e-09	-3.607175e-09	-2.211765e+01	-4.257341e+02
2.300000e-06	-2.401713e-09	-3.589998e-09	-2.184777e+01	-4.234346e+02
2.310000e-06	-2.371991e-09	-3.571046e-09	-2.157739e+01	-4.211291e+02
2.320000e-06	-2.342216e-09	-3.550871e-09	-2.130654e+01	-4.188181e+02
2.330000e-06	-2.312385e-09	-3.529123e-09	-2.103518e+01	-4.165017e+02
2.340000e-06	-2.282499e-09	-3.506393e-09	-2.076331e+01	-4.141800e+02
2.350000e-06	-2.252562e-09	-3.484150e-09	-2.049098e+01	-4.118526e+02
2.360000e-06	-2.222577e-09	-3.465017e-09	-2.021821e+01	-4.095192e+02
2.370000e-06	-2.192540e-09	-3.447868e-09	-1.994497e+01	-4.071790e+02
2.380000e-06	-2.162452e-09	-3.430510e-09	-1.967127e+01	-4.048311e+02
2.390000e-06	-2.132313e-09	-3.413094e-09	-1.939711e+01	-4.024745e+02
2.400000e-06	-2.102121e-09	-3.394478e-09	-1.912246e+01	-4.001076e+02
2.410000e-06	-2.071876e-09	-3.373968e-09	-1.884733e+01	-3.977290e+02
2.420000e-06	-2.041577e-09	-3.352061e-09	-1.857171e+01	-3.953370e+02
2.430000e-06	-2.011226e-09	-3.329384e-09	-1.829561e+01	-3.929295e+02
2.440000e-06	-1.980827e-09	-3.306088e-09	-1.801908e+01	-3.905044e+02
2.450000e-06	-1.950375e-09	-3.282066e-09	-1.774207e+01	-3.880595e+02
2.460000e-06	-1.919868e-09	-3.259454e-09	-1.746456e+01	-3.855923e+02
2.470000e-06	-1.889306e-09	-3.239658e-09	-1.718654e+01	-3.831002e+02
2.480000e-06	-1.858690e-09	-3.220042e-09	-1.690803e+01	-3.805805e+02
2.490000e-06	-1.828024e-09	-3.199586e-09	-1.662907e+01	-3.780304e+02
2.500000e-06	-1.797311e-09	-3.178748e-09	-1.634969e+01	-3.754470e+02
2.510000e-06	-1.766549e-09	-3.157855e-09	-1.606986e+01	-3.728273e+02
2.520000e-06	-1.735740e-09	-3.136573e-09	-1.578960e+01	-3.701684e+02
2.530000e-06	-1.704888e-09	-3.112158e-09	-1.550895e+01	-3.674672e+02
2.540000e-06	-1.673995e-09	-3.083467e-09	-1.522792e+01	-3.647206e+02
2.550000e-06	-1.643056e-09	-3.057034e-09	-1.494648e+01	-3.619255e+02
2.560000e-06	-1.612069e-09	-3.035099e-09	-1.466460e+01	-3.590790e+02
2.570000e-06	-1.581037e-09	-3.013256e-09	-1.438230e+01	-3.561780e+02
2.580000e-06	-1.549961e-09	-2.987544e-09	-1.409962e+01	-3.532195e+02
2.590000e-06	-1.518848e-09	-2.957750e-09	-1.381659e+01	-3.502007e+02
2.600000e-06	-1.487692e-09	-2.929141e-09	-1.353317e+01	-3.471188e+02
2.610000e-06	-1.456491e-09	-2.901495e-09	-1.324934e+01	-3.439709e+02
2.620000e-06	-1.425252e-09	-2.873154e-09	-1.296518e+01	-3.407546e+02
2.630000e-06	-1.393978e-09	-2.844661e-09	-1.268069e+01	-3.374672e+02
2.640000e-06	-1.362671e-09	-2.819082e-09	-1.239589e+01	-3.341063e+02
2.650000e-06	-1.331326e-09	-2.794706e-09	-1.211075e+01	-3.306696e+02
2.660000e-06	-1.299943e-09	-2.764272e-09	-1.182527e+01	-3.271550e+02
2.670000e-06	-1.268523e-09	-2.727163e-09	-1.153946e+01	-3.235603e+02
2.680000e-06	-1.237071e-09	-2.687424e-09	-1.125334e+01	-3.198836e+02
2.690000e-06	-1.205588e-09	-2.653570e-09	-1.096696e+01	-3.161230e+02
2.700000e-06	-1.174068e-09	-2.625868e-09	-1.068023e+01	-3.122770e+02
2.710000e-06	-1.142515e-09	-2.599161e-09	-1.039320e+01	-3.083438e+02
2.720000e-06	-1.110935e-09	-2.569910e-09	-1.010592e+01	-3.043219e+02
2.730000e-06	-1.079325e-09	-2.536743e-09	-9.818370e+00	-3.002100e+02
2.740000e-06	-1.047684e-09	-2.499598e-09	-9.530547e+00	-2.960068e+02
2.750000e-06	-1.016019e-09	-2.452320e-09	-9.242497e+00	-2.917110e+02
2.760000e-06	-9.843336e-10	-2.404558e-09	-8.954264e+00	-2.873214e+02
2.770000e-06	-9.526279e-10	-2.363167e-09	-8.665846e+00	-2.828370e+02
2.780000e-06	-9.209029e-10	-2.328873e-09	-8.377252e+00	-2.782567e+02
2.790000e-06	-8.891571e-10	-2.298889e-09	-8.088469e+00	-2.735796e+02
2.800000e-06	-8.573859e-10	-2.264765e-09	-7.799456e+00	-2.688046e+02
2.810000e-06	-8.255937e-10	-2.227758e-09	-7.510250e+00	-2.639307e+02
2.820000e-06	-7.937841e-10	-2.184548e-09	-7.220887e+00	-2.589571e+02
2.830000e-06	-7.619571e-10	-2.137969e-09	-6.931365e+00	-2.538828e+02
2.840000e-06	-7.301115e-10	-2.088251e-09	-6.641675e+00	-2.487068e+02
